# Pulseq sequence file
# Created by MATLAB mr toolbox

[VERSION]
major 1
minor 5
revision 1

[DEFINITIONS]
AdcRasterTime 1e-07 
BlockDurationRaster 1e-05 
FOV 0.192 0.24 0.256 
GradientRasterTime 1e-05 
Name we_mp 
OrientationMapping SAG 
PhaseResolution 1 
RadiofrequencyRasterTime 1e-06 
ReadoutOversamplingFactor 2 
ReceiverGainHigh 1 
TotalDuration 340.26704 
kSpaceCenterLine 120 

# Format of blocks:
# NUM DUR RF  GX  GY  GZ  ADC  EXT
[BLOCKS]
    1 592   0   0   0   0  1  4
    2   0   0   0   0   0  0  5
    3   0   0   0   0   0  0  6
    4   0   0   0   0   0  0  2
    5 1036   2   0   0   0  0  0
    6 23492   0   0   1   0  0  0
    7 303   1   0   0   0  0  0
    8 592   0   5   4   3  1  0
    9 303   3   4   5   2  0  7
   10 592   0   6   4   3  2  0
   11 303   4   7   5   2  0  7
   12 592   0   8   4   3  3  0
   13 303   5   9   5   2  0  7
   14 592   0  10   4   3  4  0
   15 303   6  11   5   2  0  7
   16 592   0  12   4   3  5  0
   17 303   7  13   5   2  0  7
   18 592   0  14   4   3  6  0
   19 303   8  15   5   2  0  7
   20 592   0  16   4   3  7  0
   21 303   9  17   5   2  0  7
   22 592   0  18   4   3  8  0
   23 303  10  19   5   2  0  7
   24 592   0  20   4   3  9  0
   25 303  11  21   5   2  0  7
   26 592   0  22   4   3 10  0
   27 303   7  23   5   2  0  7
   28 592   0  24   4   3  6  0
   29 303  12  25   5   2  0  7
   30 592   0  26   4   3 11  0
   31 303  13  27   5   2  0  7
   32 592   0  28   4   3 12  0
   33 303  14  29   5   2  0  7
   34 592   0  30   4   3 13  0
   35 303  15  31   5   2  0  7
   36 592   0  32   4   3 14  0
   37 303   1  33   5   2  0  7
   38 592   0  34   4   3  1  0
   39 303  16  35   5   2  0  7
   40 592   0  36   4   3 15  0
   41 303  17  37   5   2  0  7
   42 592   0  38   4   3 16  0
   43 303  14  39   5   2  0  7
   44 592   0  40   4   3 13  0
   45 303  18  41   5   2  0  7
   46 592   0  42   4   3 17  0
   47 303   6  43   5   2  0  7
   48 592   0  44   4   3  5  0
   49 303  19  45   5   2  0  7
   50 592   0  46   4   3 18  0
   51 303  20  47   5   2  0  7
   52 592   0  48   4   3 19  0
   53 303  10  49   5   2  0  7
   54 592   0  50   4   3  9  0
   55 303  21  51   5   2  0  7
   56 592   0  52   4   3 20  0
   57 303  11  53   5   2  0  7
   58 592   0  54   4   3 10  0
   59 303  19  55   5   2  0  7
   60 592   0  56   4   3 18  0
   61 303  22  57   5   2  0  7
   62 592   0  58   4   3 21  0
   63 303   5  59   5   2  0  7
   64 592   0  60   4   3  4  0
   65 303  23  61   5   2  0  7
   66 592   0  62   4   3 22  0
   67 303  15  63   5   2  0  7
   68 592   0  64   4   3 14  0
   69 303  16  65   5   2  0  7
   70 592   0  66   4   3 15  0
   71 303  24  67   5   2  0  7
   72 592   0  68   4   3 23  0
   73 303   3  69   5   2  0  7
   74 592   0  70   4   3  2  0
   75 303  23  71   5   2  0  7
   76 592   0  72   4   3 22  0
   77 303  18  73   5   2  0  7
   78 592   0  74   4   3 17  0
   79 303  12  75   5   2  0  7
   80 592   0  76   4   3 11  0
   81 303  25  77   5   2  0  7
   82 592   0  78   4   3 24  0
   83 303   8  79   5   2  0  7
   84 592   0  80   4   3  7  0
   85 303  21  81   5   2  0  7
   86 592   0  82   4   3 20  0
   87 303  21  83   5   2  0  7
   88 592   0  84   4   3 20  0
   89 303   8  85   5   2  0  7
   90 592   0  86   4   3  7  0
   91 303  25  87   5   2  0  7
   92 592   0  88   4   3 24  0
   93 303  12  89   5   2  0  7
   94 592   0  90   4   3 11  0
   95 303  18  91   5   2  0  7
   96 592   0  92   4   3 17  0
   97 303  23  93   5   2  0  7
   98 592   0  94   4   3 22  0
   99 303   3  95   5   2  0  7
  100 592   0  96   4   3  2  0
  101 303  24  97   5   2  0  7
  102 592   0  98   4   3 23  0
  103 303  16  99   5   2  0  7
  104 592   0 100   4   3 15  0
  105 303  15 101   5   2  0  7
  106 592   0 102   4   3 14  0
  107 303  23 103   5   2  0  7
  108 592   0 104   4   3 22  0
  109 303   5 105   5   2  0  7
  110 592   0 106   4   3  4  0
  111 303  22 107   5   2  0  7
  112 592   0 108   4   3 21  0
  113 303  19 109   5   2  0  7
  114 592   0 110   4   3 18  0
  115 303  11 111   5   2  0  7
  116 592   0 112   4   3 10  0
  117 303  21 113   5   2  0  7
  118 592   0 114   4   3 20  0
  119 303  10 115   5   2  0  7
  120 592   0 116   4   3  9  0
  121 303  20 117   5   2  0  7
  122 592   0 118   4   3 19  0
  123 303  19 119   5   2  0  7
  124 592   0 120   4   3 18  0
  125 303   6 121   5   2  0  7
  126 592   0 122   4   3  5  0
  127 303  18 123   5   2  0  7
  128 592   0 124   4   3 17  0
  129 303  14 125   5   2  0  7
  130 592   0 126   4   3 13  0
  131 303  17 127   5   2  0  7
  132 592   0 128   4   3 16  0
  133 303  16 129   5   2  0  7
  134 592   0 130   4   3 15  0
  135 303   1 131   5   2  0  7
  136 592   0 132   4   3  1  0
  137 303  15 133   5   2  0  7
  138 592   0 134   4   3 14  0
  139 303  14 135   5   2  0  7
  140 592   0 136   4   3 13  0
  141 303  13 137   5   2  0  7
  142 592   0 138   4   3 12  0
  143 303  12 139   5   2  0  7
  144 592   0 140   4   3 11  0
  145 303   7 141   5   2  0  7
  146 592   0 142   4   3  6  0
  147 303  11 143   5   2  0  7
  148 592   0 144   4   3 10  0
  149 303  10 145   5   2  0  7
  150 592   0 146   4   3  9  0
  151 303   9 147   5   2  0  7
  152 592   0 148   4   3  8  0
  153 303   8 149   5   2  0  7
  154 592   0 150   4   3  7  0
  155 303   7 151   5   2  0  7
  156 592   0 152   4   3  6  0
  157 303   6 153   5   2  0  7
  158 592   0 154   4   3  5  0
  159 303   5 155   5   2  0  7
  160 592   0 156   4   3  4  0
  161 303   4 157   5   2  0  7
  162 592   0 158   4   3  3  0
  163 303   3 159   5   2  0  7
  164 592   0 160   4   3  2  0
  165 303   1 161   5   2  0  7
  166 592   0 162   4   3  1  0
  167 303   1 163   5   2  0  7
  168 592   0 164   4   3  1  0
  169 303   3 165   5   2  0  7
  170 592   0 166   4   3  2  0
  171 303   4 167   5   2  0  7
  172 592   0 168   4   3  3  0
  173 303   5 169   5   2  0  7
  174 592   0 170   4   3  4  0
  175 303   6 171   5   2  0  7
  176 592   0 172   4   3  5  0
  177 303   7 173   5   2  0  7
  178 592   0 174   4   3  6  0
  179 303   8 175   5   2  0  7
  180 592   0 176   4   3  7  0
  181 303   9 177   5   2  0  7
  182 592   0 178   4   3  8  0
  183 303  10 179   5   2  0  7
  184 592   0 180   4   3  9  0
  185 303  11 181   5   2  0  7
  186 592   0 182   4   3 10  0
  187 303   7 183   5   2  0  7
  188 592   0 184   4   3  6  0
  189 303  12 185   5   2  0  7
  190 592   0 186   4   3 11  0
  191 303  13 187   5   2  0  7
  192 592   0 188   4   3 12  0
  193 303  14 189   5   2  0  7
  194 592   0 190   4   3 13  0
  195 303  15 191   5   2  0  7
  196 592   0 192   4   3 14  0
  197 303   1 193   5   2  0  7
  198 592   0 194   4   3  1  0
  199 303  16 195   5   2  0  7
  200 592   0 196   4   3 15  0
  201 303  17 197   5   2  0  7
  202 592   0 195   4   3 16  0
  203 303  14 194   5   2  0  7
  204 592   0 193   4   3 13  0
  205 303  18 192   5   2  0  7
  206 592   0 191   4   3 17  0
  207 303   6 190   5   2  0  7
  208 592   0 189   4   3  5  0
  209 303  19 188   5   2  0  7
  210 592   0 187   4   3 18  0
  211 303  20 186   5   2  0  7
  212 592   0 185   4   3 19  0
  213 303  10 184   5   2  0  7
  214 592   0 183   4   3  9  0
  215 303  21 182   5   2  0  7
  216 592   0 181   4   3 20  0
  217 303  11 180   5   2  0  7
  218 592   0 179   4   3 10  0
  219 303  19 178   5   2  0  7
  220 592   0 177   4   3 18  0
  221 303  22 176   5   2  0  7
  222 592   0 175   4   3 21  0
  223 303   5 174   5   2  0  7
  224 592   0 173   4   3  4  0
  225 303  23 172   5   2  0  7
  226 592   0 171   4   3 22  0
  227 303  15 170   5   2  0  7
  228 592   0 169   4   3 14  0
  229 303  16 168   5   2  0  7
  230 592   0 167   4   3 15  0
  231 303  24 166   5   2  0  7
  232 592   0 165   4   3 23  0
  233 303   3 164   5   2  0  7
  234 592   0 163   4   3  2  0
  235 303  23 162   5   2  0  7
  236 592   0 161   4   3 22  0
  237 303  18 160   5   2  0  7
  238 592   0 159   4   3 17  0
  239 303  12 158   5   2  0  7
  240 592   0 157   4   3 11  0
  241 303  25 156   5   2  0  7
  242 592   0 155   4   3 24  0
  243 303   8 154   5   2  0  7
  244 592   0 153   4   3  7  0
  245 303  21 152   5   2  0  7
  246 592   0 151   4   3 20  0
  247 303  21 150   5   2  0  7
  248 592   0 149   4   3 20  0
  249 303   8 148   5   2  0  7
  250 592   0 147   4   3  7  0
  251 303  25 146   5   2  0  7
  252 592   0 145   4   3 24  0
  253 303  12 144   5   2  0  7
  254 592   0 143   4   3 11  0
  255 303  18 142   5   2  0  7
  256 592   0 141   4   3 17  0
  257 303  23 140   5   2  0  7
  258 592   0 139   4   3 22  0
  259 303   3 138   5   2  0  7
  260 592   0 137   4   3  2  0
  261 303  24 136   5   2  0  7
  262 592   0 135   4   3 23  0
  263 303  16 134   5   2  0  7
  264 592   0 133   4   3 15  0
  265 303  15 132   5   2  0  7
  266 592   0 131   4   3 14  0
  267 303  23 130   5   2  0  7
  268 592   0 129   4   3 22  0
  269 303   5 128   5   2  0  7
  270 592   0 127   4   3  4  0
  271 303  22 126   5   2  0  7
  272 592   0 125   4   3 21  0
  273 303  19 124   5   2  0  7
  274 592   0 123   4   3 18  0
  275 303  11 122   5   2  0  7
  276 592   0 121   4   3 10  0
  277 303  21 120   5   2  0  7
  278 592   0 119   4   3 20  0
  279 303  10 118   5   2  0  7
  280 592   0 117   4   3  9  0
  281 303  20 116   5   2  0  7
  282 592   0 115   4   3 19  0
  283 303  19 114   5   2  0  7
  284 592   0 113   4   3 18  0
  285 303   6 112   5   2  0  7
  286 592   0 111   4   3  5  0
  287 303  18 110   5   2  0  7
  288 592   0 109   4   3 17  0
  289 303  14 108   5   2  0  7
  290 592   0 107   4   3 13  0
  291 303  17 106   5   2  0  7
  292 592   0 105   4   3 16  0
  293 303  16 104   5   2  0  7
  294 592   0 103   4   3 15  0
  295 303   1 102   5   2  0  7
  296 592   0 101   4   3  1  0
  297 303  15 100   5   2  0  7
  298 592   0  99   4   3 14  0
[RF]
1      222.222 5 6 7 25 1680 0 0 0 0 e
2      563.681 8 9 10 5125 100 0 0 0 0 i
3      222.222 5 6 7 25 1680 0 0 0 2.04204 e
4      222.222 5 6 7 25 1680 0 0 0 6.12611 e
5      222.222 5 6 7 25 1680 0 0 0 5.96903 e
6      222.222 5 6 7 25 1680 0 0 0 1.5708 e
7      222.222 5 6 7 25 1680 0 0 0 5.49779 e
8      222.222 5 6 7 25 1680 0 0 0 5.18363 e
9      222.222 5 6 7 25 1680 0 0 0 0.628319 e
10      222.222 5 6 7 25 1680 0 0 0 4.39823 e
11      222.222 5 6 7 25 1680 0 0 0 3.92699 e
12      222.222 5 6 7 25 1680 0 0 0 2.82743 e
13      222.222 5 6 7 25 1680 0 0 0 2.19911 e
14      222.222 5 6 7 25 1680 0 0 0 3.61283 e
15      222.222 5 6 7 25 1680 0 0 0 0.785398 e
16      222.222 5 6 7 25 1680 0 0 0 1.25664 e
17      222.222 5 6 7 25 1680 0 0 0 4.55531 e
18      222.222 5 6 7 25 1680 0 0 0 4.71239 e
19      222.222 5 6 7 25 1680 0 0 0 0.471239 e
20      222.222 5 6 7 25 1680 0 0 0 1.41372 e
21      222.222 5 6 7 25 1680 0 0 0 3.14159 e
22      222.222 5 6 7 25 1680 0 0 0 5.34071 e
23      222.222 5 6 7 25 1680 0 0 0 2.35619 e
24      222.222 5 6 7 25 1680 0 0 0 3.76991 e
25      222.222 5 6 7 25 1680 0 0 0 2.98451 e

# Format of arbitrary gradients:
#   time_shape_id of 0 means default timing (stepping with grad_raster starting at 1/2 of grad_raster)
# id amplitude first last amp_shape_id time_shape_id delay
# ..      Hz/m  Hz/m Hz/m        ..         ..          us
[GRADIENTS]
2  -1.0175e+06      -195312            0 1 2 0
3  1.01172e+06            0      -195312 3 4 0

# Format of trapezoid gradients:
# id amplitude rise flat fall delay
# ..      Hz/m   us   us   us    us
[TRAP]
 1       404040 100 9800 100   0
 4  1.02041e+06 240  250 240   0
 5 -1.02041e+06 240  250 240   0
 6 -1.00978e+06 240  250 240   0
 7  1.00978e+06 240  250 240   0
 8      -999150 240  250 240   0
 9       999150 240  250 240   0
10      -988520 240  250 240   0
11       988520 240  250 240   0
12      -977891 240  250 240   0
13       977891 240  250 240   0
14      -967262 240  250 240   0
15       967262 240  250 240   0
16      -956633 240  250 240   0
17       956633 240  250 240   0
18      -946003 240  250 240   0
19       946003 240  250 240   0
20      -935374 240  250 240   0
21       935374 240  250 240   0
22      -924745 240  250 240   0
23       924745 240  250 240   0
24      -914116 240  250 240   0
25       914116 240  250 240   0
26      -903486 240  250 240   0
27       903486 240  250 240   0
28      -892857 240  250 240   0
29       892857 240  250 240   0
30      -882228 240  250 240   0
31       882228 240  250 240   0
32      -871599 240  250 240   0
33       871599 240  250 240   0
34      -860969 240  250 240   0
35       860969 240  250 240   0
36      -850340 240  250 240   0
37       850340 240  250 240   0
38      -839711 240  250 240   0
39       839711 240  250 240   0
40      -829082 240  250 240   0
41       829082 240  250 240   0
42      -818452 240  250 240   0
43       818452 240  250 240   0
44      -807823 240  250 240   0
45       807823 240  250 240   0
46      -797194 240  250 240   0
47       797194 240  250 240   0
48      -786565 240  250 240   0
49       786565 240  250 240   0
50      -775935 240  250 240   0
51       775935 240  250 240   0
52      -765306 240  250 240   0
53       765306 240  250 240   0
54      -754677 240  250 240   0
55       754677 240  250 240   0
56      -744048 240  250 240   0
57       744048 240  250 240   0
58      -733418 240  250 240   0
59       733418 240  250 240   0
60      -722789 240  250 240   0
61       722789 240  250 240   0
62      -712160 240  250 240   0
63       712160 240  250 240   0
64      -701531 240  250 240   0
65       701531 240  250 240   0
66      -690901 240  250 240   0
67       690901 240  250 240   0
68      -680272 240  250 240   0
69       680272 240  250 240   0
70      -669643 240  250 240   0
71       669643 240  250 240   0
72      -659014 240  250 240   0
73       659014 240  250 240   0
74      -648384 240  250 240   0
75       648384 240  250 240   0
76      -637755 240  250 240   0
77       637755 240  250 240   0
78      -627126 240  250 240   0
79       627126 240  250 240   0
80      -616497 240  250 240   0
81       616497 240  250 240   0
82      -605867 240  250 240   0
83       605867 240  250 240   0
84      -595238 240  250 240   0
85       595238 240  250 240   0
86      -584609 240  250 240   0
87       584609 240  250 240   0
88      -573980 240  250 240   0
89       573980 240  250 240   0
90      -563350 240  250 240   0
91       563350 240  250 240   0
92      -552721 240  250 240   0
93       552721 240  250 240   0
94      -542092 240  250 240   0
95       542092 240  250 240   0
96      -531463 240  250 240   0
97       531463 240  250 240   0
98      -520833 240  250 240   0
99       520833 240  250 240   0
100      -510204 240  250 240   0
101       510204 240  250 240   0
102      -499575 240  250 240   0
103       499575 240  250 240   0
104      -488946 240  250 240   0
105       488946 240  250 240   0
106      -478316 240  250 240   0
107       478316 240  250 240   0
108      -467687 240  250 240   0
109       467687 240  250 240   0
110      -457058 240  250 240   0
111       457058 240  250 240   0
112      -446429 240  250 240   0
113       446429 240  250 240   0
114      -435799 240  250 240   0
115       435799 240  250 240   0
116      -425170 240  250 240   0
117       425170 240  250 240   0
118      -414541 240  250 240   0
119       414541 240  250 240   0
120      -403912 240  250 240   0
121       403912 240  250 240   0
122      -393282 240  250 240   0
123       393282 240  250 240   0
124      -382653 240  250 240   0
125       382653 240  250 240   0
126      -372024 240  250 240   0
127       372024 240  250 240   0
128      -361395 240  250 240   0
129       361395 240  250 240   0
130      -350765 240  250 240   0
131       350765 240  250 240   0
132      -340136 240  250 240   0
133       340136 240  250 240   0
134      -329507 240  250 240   0
135       329507 240  250 240   0
136      -318878 240  250 240   0
137       318878 240  250 240   0
138      -308248 240  250 240   0
139       308248 240  250 240   0
140      -297619 240  250 240   0
141       297619 240  250 240   0
142      -286990 240  250 240   0
143       286990 240  250 240   0
144      -276361 240  250 240   0
145       276361 240  250 240   0
146      -265731 240  250 240   0
147       265731 240  250 240   0
148      -255102 240  250 240   0
149       255102 240  250 240   0
150      -244473 240  250 240   0
151       244473 240  250 240   0
152      -233844 240  250 240   0
153       233844 240  250 240   0
154      -223214 240  250 240   0
155       223214 240  250 240   0
156      -212585 240  250 240   0
157       212585 240  250 240   0
158      -201956 240  250 240   0
159       201956 240  250 240   0
160      -191327 240  250 240   0
161       191327 240  250 240   0
162      -180697 240  250 240   0
163       180697 240  250 240   0
164      -170068 240  250 240   0
165       170068 240  250 240   0
166      -159439 240  250 240   0
167       159439 240  250 240   0
168      -148810 240  250 240   0
169       148810 240  250 240   0
170      -138180 240  250 240   0
171       138180 240  250 240   0
172      -127551 240  250 240   0
173       127551 240  250 240   0
174      -116922 240  250 240   0
175       116922 240  250 240   0
176      -106293 240  250 240   0
177       106293 240  250 240   0
178     -95663.3 240  250 240   0
179      95663.3 240  250 240   0
180       -85034 240  250 240   0
181        85034 240  250 240   0
182     -74404.8 240  250 240   0
183      74404.8 240  250 240   0
184     -63775.5 240  250 240   0
185      63775.5 240  250 240   0
186     -53146.3 240  250 240   0
187      53146.3 240  250 240   0
188       -42517 240  250 240   0
189        42517 240  250 240   0
190     -31887.8 240  250 240   0
191      31887.8 240  250 240   0
192     -21258.5 240  250 240   0
193      21258.5 240  250 240   0
194     -10629.3 240  250 240   0
195      10629.3 240  250 240   0
196            0 240  250 240   0
197           -0 240  250 240   0
198   1.0034e+06 240  250 240   0
199  -1.0034e+06 240  250 240   0
200       986395 240  250 240   0
201      -986395 240  250 240   0
202       969388 240  250 240   0
203      -969388 240  250 240   0
204       952381 240  250 240   0
205      -952381 240  250 240   0
206       918367 240  250 240   0
207      -918367 240  250 240   0
208       901361 240  250 240   0
209      -901361 240  250 240   0
210       884354 240  250 240   0
211      -884354 240  250 240   0
212       867347 240  250 240   0
213      -867347 240  250 240   0
214       833333 240  250 240   0
215      -833333 240  250 240   0
216       816327 240  250 240   0
217      -816327 240  250 240   0
218       799320 240  250 240   0
219      -799320 240  250 240   0
220       782313 240  250 240   0
221      -782313 240  250 240   0
222       748299 240  250 240   0
223      -748299 240  250 240   0
224       731293 240  250 240   0
225      -731293 240  250 240   0
226       714286 240  250 240   0
227      -714286 240  250 240   0
228       697279 240  250 240   0
229      -697279 240  250 240   0
230       663265 240  250 240   0
231      -663265 240  250 240   0
232       646259 240  250 240   0
233      -646259 240  250 240   0
234       629252 240  250 240   0
235      -629252 240  250 240   0
236       612245 240  250 240   0
237      -612245 240  250 240   0
238       578231 240  250 240   0
239      -578231 240  250 240   0
240       561224 240  250 240   0
241      -561224 240  250 240   0
242       544218 240  250 240   0
243      -544218 240  250 240   0
244       527211 240  250 240   0
245      -527211 240  250 240   0
246       493197 240  250 240   0
247      -493197 240  250 240   0
248       476190 240  250 240   0
249      -476190 240  250 240   0
250       459184 240  250 240   0
251      -459184 240  250 240   0
252       442177 240  250 240   0
253      -442177 240  250 240   0
254       408163 240  250 240   0
255      -408163 240  250 240   0
256       391156 240  250 240   0
257      -391156 240  250 240   0
258       374150 240  250 240   0
259      -374150 240  250 240   0
260       357143 240  250 240   0
261      -357143 240  250 240   0
262       323129 240  250 240   0
263      -323129 240  250 240   0
264       306122 240  250 240   0
265      -306122 240  250 240   0
266       289116 240  250 240   0
267      -289116 240  250 240   0
268       272109 240  250 240   0
269      -272109 240  250 240   0
270       238095 240  250 240   0
271      -238095 240  250 240   0
272       221088 240  250 240   0
273      -221088 240  250 240   0
274       204082 240  250 240   0
275      -204082 240  250 240   0
276       187075 240  250 240   0
277      -187075 240  250 240   0
278       153061 240  250 240   0
279      -153061 240  250 240   0
280       136054 240  250 240   0
281      -136054 240  250 240   0
282       119048 240  250 240   0
283      -119048 240  250 240   0
284       110544 240  250 240   0
285      -110544 240  250 240   0
286       102041 240  250 240   0
287      -102041 240  250 240   0
288      93537.4 240  250 240   0
289     -93537.4 240  250 240   0
290      76530.6 240  250 240   0
291     -76530.6 240  250 240   0
292      68027.2 240  250 240   0
293     -68027.2 240  250 240   0
294      59523.8 240  250 240   0
295     -59523.8 240  250 240   0
296      51020.4 240  250 240   0
297     -51020.4 240  250 240   0
298      34013.6 240  250 240   0
299     -34013.6 240  250 240   0
300      25510.2 240  250 240   0
301     -25510.2 240  250 240   0
302      17006.8 240  250 240   0
303     -17006.8 240  250 240   0
304       8503.4 240  250 240   0
305      -8503.4 240  250 240   0

# Format of ADC events:
# id num dwell delay freqPPM phasePPM freq phase phase_id
# ..  ..    ns    us     ppm  rad/MHz   Hz   rad       ..
[ADC]
1 512 10000 790 0 0 0 0 0
2 512 10000 790 0 0 0 2.04204 0
3 512 10000 790 0 0 0 6.12611 0
4 512 10000 790 0 0 0 5.96903 0
5 512 10000 790 0 0 0 1.5708 0
6 512 10000 790 0 0 0 5.49779 0
7 512 10000 790 0 0 0 5.18363 0
8 512 10000 790 0 0 0 0.628319 0
9 512 10000 790 0 0 0 4.39823 0
10 512 10000 790 0 0 0 3.92699 0
11 512 10000 790 0 0 0 2.82743 0
12 512 10000 790 0 0 0 2.19911 0
13 512 10000 790 0 0 0 3.61283 0
14 512 10000 790 0 0 0 0.785398 0
15 512 10000 790 0 0 0 1.25664 0
16 512 10000 790 0 0 0 4.55531 0
17 512 10000 790 0 0 0 4.71239 0
18 512 10000 790 0 0 0 0.471239 0
19 512 10000 790 0 0 0 1.41372 0
20 512 10000 790 0 0 0 3.14159 0
21 512 10000 790 0 0 0 5.34071 0
22 512 10000 790 0 0 0 2.35619 0
23 512 10000 790 0 0 0 3.76991 0
24 512 10000 790 0 0 0 2.98451 0

# Format of extension lists:
# id type ref next_id
# next_id of 0 terminates the list
# Extension list is followed by extension specifications
[EXTENSIONS]
1 1 4 0
2 1 5 1
3 1 6 2
4 1 7 3
5 1 8 0
6 1 6 0
7 3 1 0
8 1 1 0
9 3 2 8
10 1 2 0
11 1 3 10
12 3 3 8
13 1 5 10
14 3 4 8

# Extension specification for setting labels:
# id set labelstring
extension LABELSET 1
1 0 PAR
2 1 REF
3 1 IMA
4 0 REF
5 0 IMA
6 0 LIN
7 1 NOISE
8 0 NOISE

# Extension specification for increasing labels:
# id inc labelstring
extension LABELINC 3
1 1 PAR
2 2 LIN
3 1 LIN
4 0 LIN

# Sequence Shapes
[SHAPES]

shape_id 1
num_samples 4
0.191952507
1
1
-0

shape_id 2
num_samples 4
0
20
143
168

shape_id 3
num_samples 6
0
1
1
0
-0.193050193
-0.193050193

shape_id 4
num_samples 6
0
24
50
74
79
591

shape_id 5
num_samples 6
1
1
0
0
1
1

shape_id 6
num_samples 6
0
0
4

shape_id 7
num_samples 6
0
50
51
1279
1280
1330

shape_id 8
num_samples 1024
0.0332689869
0.0335360565
0.0338052677
0.0340766374
0.034350183
0.0346259218
0.0349038714
0.0351840494
0.0354664736
0.0357511619
0.0360381325
0.0363274036
0.0366189935
0.0369129207
0.0372092039
0.037507862
0.0378089138
0.0381123785
0.0384182752
0.0387266236
0.0390374429
0.0393507531
0.039666574
0.0399849255
0.0403058279
0.0406293015
0.0409553668
0.0412840445
0.0416153554
0.0419493204
0.0422859608
0.0426252977
0.0429673529
0.0433121477
0.0436597042
0.0440100443
0.0443631901
0.0447191639
0.0450779884
0.0454396862
0.0458042801
0.0461717932
0.0465422487
0.04691567
0.0472920807
0.0476715046
0.0480539656
0.0484394879
0.0488280958
0.0492198138
0.0496146666
0.0500126791
0.0504138764
0.0508182839
0.0512259269
0.0516368312
0.0520510227
0.0524685274
0.0528893716
0.0533135818
0.0537411847
0.0541722072
0.0546066763
0.0550446195
0.0554860642
0.0559310381
0.0563795693
0.0568316859
0.0572874161
0.0577467888
0.0582098326
0.0586765766
0.05914705
0.0596212824
0.0600993035
0.0605811431
0.0610668315
0.0615563991
0.0620498764
0.0625472944
0.0630486841
0.0635540768
0.0640635041
0.0645769979
0.0650945902
0.0656163132
0.0661421996
0.066672282
0.0672065935
0.0677451674
0.0682880373
0.0688352368
0.0693868001
0.0699427613
0.0705031552
0.0710680164
0.07163738
0.0722112814
0.0727897561
0.0733728401
0.0739605693
0.0745529803
0.0751501096
0.0757519943
0.0763586715
0.0769701786
0.0775865535
0.0782078342
0.078834059
0.0794652664
0.0801014955
0.0807427852
0.0813891752
0.0820407051
0.0826974149
0.083359345
0.0840265359
0.0846990287
0.0853768644
0.0860600847
0.0867487312
0.0874428461
0.0881424718
0.0888476509
0.0895584266
0.0902748421
0.090996941
0.0917247674
0.0924583653
0.0931977795
0.0939430547
0.0946942361
0.0954513694
0.0962145002
0.0969836748
0.0977589396
0.0985403415
0.0993279274
0.100121745
0.100921842
0.101728266
0.102541066
0.103360291
0.10418599
0.105018212
0.105857006
0.106702424
0.107554515
0.108413331
0.109278922
0.11015134
0.111030636
0.111916863
0.112810074
0.11371032
0.114617656
0.115532135
0.11645381
0.117382736
0.118318968
0.11926256
0.120213568
0.121172048
0.122138054
0.123111644
0.124092875
0.125081803
0.126078485
0.127082981
0.128095347
0.129115642
0.130143924
0.131180254
0.132224691
0.133277294
0.134338124
0.135407241
0.136484707
0.137570582
0.138664928
0.139767808
0.140879283
0.141999417
0.143128272
0.144265912
0.145412401
0.146567803
0.147732182
0.148905604
0.150088132
0.151279834
0.152480774
0.15369102
0.154910637
0.156139692
0.157378253
0.158626388
0.159884164
0.161151649
0.162428912
0.163716022
0.165013049
0.166320061
0.167637128
0.168964322
0.170301712
0.171649368
0.173007364
0.174375768
0.175754655
0.177144094
0.178544159
0.179954923
0.181376458
0.182808837
0.184252134
0.185706423
0.187171777
0.18864827
0.190135978
0.191634975
0.193145335
0.194667135
0.196200449
0.197745353
0.199301923
0.200870235
0.202450366
0.204042391
0.205646387
0.207262432
0.208890602
0.210530974
0.212183626
0.213848635
0.215526078
0.217216033
0.218918579
0.220633792
0.222361751
0.224102534
0.225856219
0.227622884
0.229402608
0.231195467
0.233001542
0.234820909
0.236653648
0.238499836
0.240359551
0.242232872
0.244119877
0.246020643
0.247935248
0.249863771
0.251806288
0.253762876
0.255733614
0.257718579
0.259717846
0.261731492
0.263759595
0.265802229
0.267859471
0.269931395
0.272018078
0.274119594
0.276236017
0.278367421
0.280513879
0.282675465
0.284852251
0.287044308
0.28925171
0.291474525
0.293712826
0.29596668
0.298236158
0.300521328
0.302822257
0.305139012
0.307471659
0.309820264
0.31218489
0.314565602
0.316962461
0.31937553
0.32180487
0.324250539
0.326712596
0.329191099
0.331686104
0.334197666
0.336725838
0.339270674
0.341832225
0.34441054
0.347005668
0.349617656
0.35224655
0.354892392
0.357555226
0.360235093
0.362932031
0.365646077
0.368377267
0.371125634
0.37389121
0.376674025
0.379474106
0.382291478
0.385126166
0.38797819
0.390847569
0.393734319
0.396638455
0.399559989
0.402498929
0.405455283
0.408429054
0.411420243
0.414428848
0.417454866
0.42049829
0.423559107
0.426637306
0.429732869
0.432845777
0.435976007
0.439123531
0.442288321
0.445470342
0.448669558
0.451885928
0.455119406
0.458369945
0.461637493
0.464921992
0.468223383
0.471541601
0.474876576
0.478228236
0.481596503
0.484981293
0.488382521
0.491800095
0.495233918
0.498683889
0.502149901
0.505631842
0.509129597
0.512643044
0.516172054
0.519716496
0.523276231
0.526851114
0.530440997
0.534045724
0.537665134
0.541299058
0.544947324
0.548609751
0.552286154
0.55597634
0.559680111
0.56339726
0.567127575
0.570870838
0.574626822
0.578395295
0.582176018
0.585968742
0.589773215
0.593589174
0.597416351
0.60125447
0.605103247
0.60896239
0.612831601
0.616710572
0.620598988
0.624496529
0.628402861
0.632317648
0.636240541
0.640171187
0.644109222
0.648054274
0.652005963
0.655963902
0.659927693
0.663896932
0.667871204
0.671850087
0.67583315
0.679819954
0.683810051
0.687802983
0.691798285
0.695795482
0.699794092
0.703793623
0.707793574
0.711793437
0.715792693
0.719790815
0.72378727
0.727781513
0.731772991
0.735761144
0.739745403
0.74372519
0.747699918
0.751668994
0.755631815
0.75958777
0.76353624
0.767476599
0.771408212
0.775330437
0.779242625
0.783144118
0.787034251
0.790912353
0.794777744
0.79862974
0.802467648
0.806290769
0.810098398
0.813889824
0.817664329
0.82142119
0.825159679
0.828879062
0.8325786
0.83625755
0.839915163
0.843550688
0.847163367
0.850752441
0.854317145
0.857856714
0.861370378
0.864857364
0.868316898
0.871748204
0.875150505
0.878523021
0.881864972
0.885175579
0.88845406
0.891699636
0.894911527
0.898088953
0.901231139
0.904337309
0.907406688
0.910438507
0.913431998
0.916386396
0.919300941
0.922174877
0.925007452
0.927797919
0.930545538
0.933249573
0.935909296
0.938523985
0.941092926
0.943615411
0.946090742
0.948518228
0.95089719
0.953226954
0.95550686
0.957736256
0.9599145
0.962040964
0.96411503
0.966136091
0.968103555
0.97001684
0.971875379
0.973678618
0.975426017
0.977117052
0.97875121
0.980327998
0.981846934
0.983307554
0.984709412
0.986052074
0.987335127
0.988558172
0.98972083
0.990822739
0.991863554
0.992842948
0.993760615
0.994616265
0.995409629
0.996140454
0.996808511
0.997413587
0.997955489
0.998434046
0.998849105
0.999200533
0.999488218
0.999712069
0.999872014
0.999968001
1
0.999968001
0.999872014
0.999712069
0.999488218
0.999200533
0.998849105
0.998434046
0.997955489
